"Time (s)","Acceleration x (m/s^2)","Acceleration y (m/s^2)","Acceleration z (m/s^2)"
9.224660000E-4,-4.096512318E0,1.335195065E0,8.216953278E0
3.029132000E-3,-4.110869408E0,1.205982566E0,8.331808090E0
5.136893000E-3,-4.091726780E0,1.095912814E0,8.494520187E0
7.242362000E-3,-4.039084435E0,1.004985452E0,8.652446747E0
9.348976000E-3,-3.991228104E0,9.762716293E-1,8.834300995E0
1.145762200E-2,-3.948157310E0,9.571290612E-1,9.006584167E0
1.356371600E-2,-3.890729666E0,9.619147182E-1,9.097511292E0
1.566954900E-2,-3.799802303E0,1.009771109E0,9.221938133E0
1.777548700E-2,-3.728017569E0,1.081555843E0,9.365508080E0
1.988210100E-2,-3.622733593E0,1.153340459E0,9.585647583E0
2.198871600E-2,-3.493520975E0,1.234696507E0,9.772287369E0
2.409533000E-2,-3.378665686E0,1.335195065E0,9.949356079E0
2.620236200E-2,-3.235096216E0,1.445264935E0,1.013121128E1
2.830861200E-2,-3.091526747E0,1.545763373E0,1.025563812E1
3.041522600E-2,-2.971885681E0,1.660618901E0,1.037049294E1
3.252184100E-2,-2.871387243E0,1.765903115E0,1.048056316E1
3.462845500E-2,-2.770888567E0,1.861616015E0,1.055234814E1
3.673512200E-2,-2.727817774E0,1.942971945E0,1.064327526E1
3.884173700E-2,-2.689532757E0,2.019542217E0,1.071506023E1
4.094835100E-2,-2.641676188E0,2.091326952E0,1.082512951E1
4.305496600E-2,-2.636890650E0,2.139183521E0,1.086341476E1
4.516163200E-2,-2.636890650E0,2.196611166E0,1.090170002E1
4.726824700E-2,-2.622533560E0,2.239681959E0,1.089212894E1
4.937486200E-2,-2.608176708E0,2.287538528E0,1.086820030E1
5.148147600E-2,-2.612962246E0,2.306680918E0,1.081077290E1
5.358809100E-2,-2.617748022E0,2.335394859E0,1.071506023E1
5.569626800E-2,-2.612962246E0,2.354537487E0,1.059541893E1
5.780137200E-2,-2.608176708E0,2.388036966E0,1.043270683E1
5.990798700E-2,-2.694318295E0,2.388036966E0,1.028913784E1
6.201460100E-2,-2.751745939E0,2.388036966E0,1.014556789E1
6.412121600E-2,-2.809173822E0,2.364108801E0,1.002114105E1
6.622783000E-2,-2.876172781E0,2.344966173E0,9.858428955E0
6.833444500E-2,-2.943171740E0,2.330609322E0,9.676574707E0
7.044111200E-2,-2.995813847E0,2.316252232E0,9.499505997E0
7.254772600E-2,-3.038884640E0,2.292324066E0,9.274580956E0
7.465434100E-2,-3.096312523E0,2.282752752E0,9.102297783E0
7.676095500E-2,-3.139383316E0,2.258824587E0,8.934800148E0
7.886762200E-2,-3.192025423E0,2.230110645E0,8.800801277E0
8.097423700E-2,-3.225524902E0,2.196611166E0,8.681160927E0
8.308085100E-2,-3.268595695E0,2.167897224E0,8.566305161E0
8.518746600E-2,-3.321237803E0,2.134397745E0,8.484949112E0
8.729408000E-2,-3.369094372E0,2.096112728E0,8.398807526E0
8.940074700E-2,-3.388236761E0,2.072184324E0,8.360522270E0
9.150736200E-2,-3.416950703E0,2.009970903E0,8.307880402E0
9.361397600E-2,-3.421736479E0,1.938186288E0,8.264809608E0
9.572059100E-2,-3.450450182E0,1.861616015E0,8.212167740E0
9.782725700E-2,-3.479164124E0,1.799402595E0,8.126026154E0
9.993382000E-2,-3.493520975E0,1.713261008E0,8.092526436E0
1.020404870E-1,-3.507878065E0,1.651047587E0,8.030312538E0
1.041471010E-1,-3.531806231E0,1.569691658E0,7.992027760E0
1.062537160E-1,-3.555734396E0,1.497906923E0,7.948956966E0
1.083603300E-1,-3.574877024E0,1.426122308E0,7.925028801E0
1.104669970E-1,-3.589233875E0,1.368694544E0,7.896314621E0
1.125736120E-1,-3.574877024E0,1.282552958E0,7.896314621E0
1.146802260E-1,-3.570091486E0,1.239482164E0,7.896314621E0
1.167868410E-1,-3.570091486E0,1.205982566E0,7.901100159E0
1.188934550E-1,-3.574877024E0,1.148554921E0,7.977670670E0
1.210000700E-1,-3.555734396E0,1.105484009E0,8.020741463E0
1.231067370E-1,-3.517449379E0,1.095912814E0,8.054241180E0
1.252133510E-1,-3.503092289E0,1.076770186E0,8.078168869E0
1.273199660E-1,-3.469592810E0,1.052842021E0,8.106883049E0
1.294265800E-1,-3.436093330E0,1.033699393E0,8.116454124E0
1.315332470E-1,-3.402593851E0,1.043270707E0,8.159524918E0
1.336398620E-1,-3.373879910E0,1.048056364E0,8.274380684E0
1.357464760E-1,-3.364308596E0,1.067198873E0,8.379665375E0
1.378530910E-1,-3.345165968E0,1.076770186E0,8.508877754E0
1.399597050E-1,-3.292523861E0,1.081555843E0,8.590232849E0
1.420663200E-1,-3.249453068E0,1.091127157E0,8.695517540E0
1.441729870E-1,-3.177668571E0,1.091127157E0,8.843872070E0
1.462796010E-1,-3.110669374E0,1.095912814E0,8.987442017E0
1.483868930E-1,-3.043670416E0,1.110269666E0,9.150154114E0
1.504928300E-1,-2.986242771E0,1.105484009E0,9.279366493E0
1.525994450E-1,-2.904886723E0,1.095912814E0,9.360722542E0
1.547061120E-1,-2.871387243E0,1.110269666E0,9.470791817E0
1.568127260E-1,-2.885744095E0,1.119840980E0,9.633503914E0
1.589193410E-1,-2.876172781E0,1.129412293E0,9.801001549E0
1.610260070E-1,-2.866601467E0,1.124626637E0,9.896714211E0
1.631326220E-1,-2.842673302E0,1.138983607E0,9.944570541E0
1.652392370E-1,-2.847458839E0,1.143769264E0,1.001156998E1
1.673458510E-1,-2.837887764E0,1.115055323E0,1.008335495E1
1.694524660E-1,-2.823530674E0,1.105484009E0,1.012642574E1
1.715591320E-1,-2.809173822E0,1.076770186E0,1.019342422E1
1.736656950E-1,-2.766103029E0,1.043270707E0,1.019820976E1
1.757723620E-1,-2.756531715E0,1.004985452E0,1.020778179E1
1.778789760E-1,-2.713460922E0,9.571290612E-1,1.021735287E1
1.799855910E-1,-2.723032236E0,9.236295223E-1,1.021735287E1
1.820922050E-1,-2.689532757E0,8.662018180E-1,1.024606609E1
1.841988200E-1,-2.679961443E0,8.327022791E-1,1.024606609E1
1.863054340E-1,-2.670390129E0,8.087740541E-1,1.025085258E1
1.884121010E-1,-2.660818815E0,7.896314859E-1,1.022692394E1
1.905187160E-1,-2.646461725E0,7.704889178E-1,1.025563812E1
1.926253300E-1,-2.627319336E0,7.417750359E-1,1.023649502E1
1.947319450E-1,-2.622533560E0,7.417750359E-1,1.023649502E1
1.968385590E-1,-2.622533560E0,7.369893789E-1,1.021735287E1
1.989452260E-1,-2.612962246E0,7.322037220E-1,1.019342422E1
2.010518410E-1,-2.612962246E0,7.274180651E-1,1.019342422E1
2.031584550E-1,-2.656033039E0,7.274180651E-1,1.019342422E1
2.052650700E-1,-2.665604353E0,7.609176040E-1,1.015992451E1
2.073717370E-1,-2.694318295E0,7.561319470E-1,1.008814049E1
2.094783510E-1,-2.689532757E0,8.087740541E-1,1.006421185E1
2.115849660E-1,-2.718246460E0,8.470591903E-1,1.004985523E1
2.136916320E-1,-2.727817774E0,8.757730722E-1,1.001156998E1
2.157982470E-1,-2.708675146E0,8.805587292E-1,9.954142570E0
2.179048620E-1,-2.703889608E0,9.044869542E-1,9.925428391E0
2.200114760E-1,-2.694318295E0,8.757730722E-1,9.901499748E0
2.221180910E-1,-2.684746981E0,8.662018180E-1,9.872786522E0
2.242247050E-1,-2.641676188E0,8.518448472E-1,9.853643417E0
2.263313200E-1,-2.627319336E0,8.279166222E-1,9.853643417E0
2.284379340E-1,-2.608176708E0,8.039883971E-1,9.872786522E0
2.305446010E-1,-2.589034081E0,7.944171429E-1,9.915857315E0
2.326512160E-1,-2.569891453E0,7.609176040E-1,9.939785004E0
2.347578300E-1,-2.545963287E0,7.513462901E-1,9.963713646E0
2.368644450E-1,-2.502892494E0,7.226324677E-1,9.963713646E0
2.389711120E-1,-2.464607239E0,7.130611539E-1,9.978070259E0
2.410777260E-1,-2.440679073E0,7.034898400E-1,9.963713646E0
2.431843410E-1,-2.402393818E0,6.795616150E-1,9.968499184E0
2.452909550E-1,-2.359323025E0,6.604190469E-1,9.973284721E0
2.473976220E-1,-2.311466694E0,6.412764788E-1,9.968499184E0
2.495042370E-1,-2.287538528E0,6.077769399E-1,9.954142570E0
2.516108510E-1,-2.263610125E0,5.694918036E-1,9.973284721E0
2.537174660E-1,-2.254039049E0,5.599204898E-1,9.958928108E0
2.558240800E-1,-2.239681959E0,5.455635786E-1,9.934999466E0
2.579306950E-1,-2.230110645E0,5.455635786E-1,9.949356079E0
2.600373620E-1,-2.249253273E0,5.503492355E-1,9.958928108E0
2.621439240E-1,-2.239681959E0,5.503492355E-1,9.949356079E0
2.642505910E-1,-2.254039049E0,5.647061467E-1,9.968499184E0
2.663572050E-1,-2.263610125E0,5.647061467E-1,9.973284721E0
2.684638200E-1,-2.287538528E0,5.694918036E-1,9.958928108E0
2.705704340E-1,-2.287538528E0,5.838487148E-1,9.949356079E0
2.726770490E-1,-2.287538528E0,5.886343718E-1,9.944570541E0
2.747837160E-1,-2.297109842E0,5.838487148E-1,9.934999466E0
2.768903300E-1,-2.335394859E0,6.029912829E-1,9.906285286E0
2.789969970E-1,-2.330609322E0,5.886343718E-1,9.891928673E0
2.811036120E-1,-2.340180635E0,5.790630579E-1,9.863214493E0
2.832102260E-1,-2.344966173E0,5.599204898E-1,9.848857880E0
2.853168410E-1,-2.359323025E0,5.551348329E-1,9.824930191E0
2.874234550E-1,-2.349751949E0,5.455635786E-1,9.820143700E0
2.895300700E-1,-2.359323025E0,5.216353536E-1,9.810572624E0
2.916367370E-1,-2.325823545E0,5.216353536E-1,9.810572624E0
2.937433510E-1,-2.325823545E0,5.072783828E-1,9.801001549E0
2.958499660E-1,-2.287538528E0,4.977070987E-1,9.805787086E0
2.979565800E-1,-2.277967215E0,4.785645306E-1,9.824930191E0
3.000632470E-1,-2.249253273E0,4.689932466E-1,9.839286804E0
3.021698090E-1,-2.234896421E0,4.498506486E-1,9.839286804E0
3.042764760E-1,-2.201396942E0,4.498506486E-1,9.777072906E0
3.063830910E-1,-2.148754835E0,4.402793646E-1,9.729216576E0
3.084897050E-1,-2.100898266E0,4.211367965E-1,9.628718376E0
3.105963200E-1,-2.148754835E0,4.354937077E-1,9.824930191E0
3.127029340E-1,-2.167897224E0,4.642075896E-1,9.954142570E0
3.148096010E-1,-2.167897224E0,4.737788737E-1,9.911071777E0
3.169162160E-1,-2.153540373E0,4.737788737E-1,9.820143700E0
3.190228300E-1,-2.134397745E0,4.881358147E-1,9.753145218E0
3.211294450E-1,-2.086541414E0,4.785645306E-1,9.671789169E0
3.232360590E-1,-2.072184324E0,5.120640397E-1,9.623932838E0
3.253426740E-1,-2.053041935E0,5.120640397E-1,9.556933403E0
3.274493410E-1,-2.014756680E0,5.216353536E-1,9.485149384E0
3.295559550E-1,-2.014756680E0,5.359922647E-1,9.403793335E0
3.316625700E-1,-2.014756680E0,5.359922647E-1,9.332008362E0
3.337692370E-1,-2.014756680E0,5.455635786E-1,9.274580956E0
3.358758510E-1,-2.009970903E0,5.647061467E-1,9.245866776E0
3.379824660E-1,-2.019542217E0,5.599204898E-1,9.169296265E0
3.400890800E-1,-2.024327993E0,5.599204898E-1,9.121439934E0
3.421956950E-1,-2.024327993E0,5.359922647E-1,9.092725754E0
3.443023090E-1,-2.029113531E0,5.264210105E-1,9.049654961E0
3.464089760E-1,-2.048256159E0,5.359922647E-1,9.011369705E0
3.485155390E-1,-2.033899307E0,5.407779217E-1,8.997013092E0
3.506222050E-1,-2.048256159E0,5.264210105E-1,9.001798630E0
3.527288200E-1,-2.033899307E0,5.455635786E-1,8.987442017E0
3.548354340E-1,-2.024327993E0,5.359922647E-1,9.011369705E0
3.569420490E-1,-2.019542217E0,4.977070987E-1,9.001798630E0
3.590487160E-1,-1.962114573E0,4.689932466E-1,8.997013092E0
3.611553300E-1,-1.923829436E0,4.498506486E-1,8.977870941E0
3.632619450E-1,-1.909472466E0,4.163511395E-1,9.092725754E0
3.653685590E-1,-1.909472466E0,3.780659735E-1,9.260223389E0
3.674751740E-1,-1.890329838E0,3.302095234E-1,9.317651749E0
3.695818410E-1,-1.866401672E0,2.871387303E-1,9.399007797E0
3.716884550E-1,-1.828116536E0,2.249253243E-1,9.446864128E0
3.737950700E-1,-1.789831281E0,1.914258152E-1,9.504291534E0
3.759016840E-1,-1.751546144E0,1.435693651E-1,9.556933403E0
3.780082990E-1,-1.708475351E0,1.052841991E-1,9.604789734E0
3.801149140E-1,-1.655833244E0,4.785645381E-2,9.681360245E0
3.822215800E-1,-1.598405480E0,-9.571290575E-3,9.734002113E0
3.843281950E-1,-1.569691658E0,-6.221338734E-2,9.796216011E0
3.864348090E-1,-1.540977836E0,-1.244267747E-1,9.848857880E0
3.885414240E-1,-1.521835208E0,-1.531406492E-1,9.925428391E0
3.906480910E-1,-1.493121386E0,-2.009970993E-1,9.973284721E0
3.927547050E-1,-1.483550072E0,-2.488535494E-1,9.978070259E0
3.948613200E-1,-1.502692580E0,-2.727817893E-1,1.002114105E1
3.969679340E-1,-1.502692580E0,-3.062812984E-1,1.006421185E1
3.990745490E-1,-1.497906923E0,-3.062812984E-1,1.007378292E1
4.011811640E-1,-1.531406522E0,-3.110669553E-1,1.008814049E1
4.032878300E-1,-1.531406522E0,-3.254238665E-1,1.007378292E1
4.053944450E-1,-1.540977836E0,-3.158525825E-1,1.007378292E1
4.075010590E-1,-1.550549030E0,-3.110669553E-1,1.008335495E1
4.096076740E-1,-1.564906001E0,-3.014956415E-1,1.005942631E1
4.117142890E-1,-1.593619823E0,-2.632105052E-1,1.006899738E1
4.138209030E-1,-1.631905079E0,-2.584248483E-1,1.004985523E1
4.159275700E-1,-1.641476393E0,-2.392822653E-1,1.002592659E1
4.180341840E-1,-1.655833244E0,-2.057827413E-1,9.982855797E0
4.201408510E-1,-1.665404558E0,-1.435693651E-1,9.973284721E0
4.222474140E-1,-1.665404558E0,-1.292124242E-1,9.963713646E0
4.243540280E-1,-1.670190215E0,-8.614161611E-2,9.973284721E0
4.264606430E-1,-1.646261930E0,-5.742774159E-2,9.963713646E0
4.285673090E-1,-1.622333765E0,-1.435693540E-2,9.968499184E0
4.306739240E-1,-1.598405480E0,3.828516230E-2,9.949356079E0
4.327805390E-1,-1.564906001E0,4.785645381E-2,9.944570541E0
4.348872050E-1,-1.545763373E0,8.135596663E-2,9.911071777E0
4.369938200E-1,-1.517049551E0,1.004985496E-1,9.901499748E0
4.391004340E-1,-1.502692580E0,1.196411327E-1,9.891928673E0
4.412070490E-1,-1.483550072E0,1.483550072E-1,9.858428955E0
4.433137160E-1,-1.464407444E0,1.866401732E-1,9.844072342E0
4.454202780E-1,-1.426122308E0,2.057827413E-1,9.829715729E0
4.475269450E-1,-1.411765337E0,2.249253243E-1,9.767501831E0
4.496335590E-1,-1.392622828E0,2.392822653E-1,9.719645500E0
4.517401740E-1,-1.339980721E0,2.488535494E-1,9.681360245E0
4.538467890E-1,-1.287338614E0,2.488535494E-1,9.595218658E0
4.559534030E-1,-1.153340459E0,1.914258152E-1,9.188439369E0
4.580600180E-1,-1.167697430E0,2.105683982E-1,9.365508080E0
4.601666840E-1,-1.205982566E0,2.584248483E-1,9.657432556E0
4.622732990E-1,-1.215553880E0,2.632105052E-1,9.571290970E0
4.643799140E-1,-1.143769264E0,2.536391914E-1,9.375079155E0
4.664865280E-1,-1.095912814E0,2.105683982E-1,9.178867340E0
4.685931950E-1,-1.091127157E0,1.962114573E-1,9.236295700E0
4.706998090E-1,-1.095912814E0,1.722832322E-1,9.365508080E0
4.728064240E-1,-1.095912814E0,1.579262912E-1,9.365508080E0
4.749130390E-1,-1.086341500E0,1.148554832E-1,9.284152031E0
4.770197050E-1,-1.057627559E0,9.092725813E-2,9.255437851E0
4.791262680E-1,-1.067198873E0,6.221338734E-2,9.241081238E0
4.812329340E-1,-1.067198873E0,3.349951655E-2,9.284152031E0
4.833394970E-1,-1.067198873E0,1.435693540E-2,9.303294182E0
4.854461640E-1,-1.076770186E0,-3.349951655E-2,9.317651749E0
4.875527780E-1,-1.071984529E0,-5.264209956E-2,9.327222824E0
4.896594450E-1,-1.086341500E0,-6.699903309E-2,9.355937004E0
4.917660590E-1,-1.071984529E0,-1.004985496E-1,9.379864693E0
4.938726740E-1,-1.095912814E0,-1.052841991E-1,9.408578873E0
4.959792890E-1,-1.095912814E0,-1.387837082E-1,9.456435204E0
4.980859030E-1,-1.110269666E0,-1.674975902E-1,9.504291534E0
5.001925180E-1,-1.129412293E0,-1.770688742E-1,9.528220177E0
5.022991320E-1,-1.129412293E0,-1.818545163E-1,9.561718941E0
5.044057990E-1,-1.143769264E0,-1.914258152E-1,9.585647583E0
5.065124140E-1,-1.129412293E0,-2.344966233E-1,9.638289452E0
5.086190280E-1,-1.153340459E0,-2.297109663E-1,9.671789169E0
5.107256430E-1,-1.148554921E0,-2.392822653E-1,9.700503349E0
5.128323090E-1,-1.124626637E0,-2.632105052E-1,9.743574142E0
5.149388720E-1,-1.158126116E0,-2.632105052E-1,9.772287369E0
5.170455390E-1,-1.158126116E0,-2.632105052E-1,9.791430473E0
5.191521530E-1,-1.153340459E0,-2.727817893E-1,9.839286804E0
5.212587680E-1,-1.153340459E0,-2.775674164E-1,9.891928673E0
5.233654340E-1,-1.153340459E0,-2.632105052E-1,9.896714211E0
5.254720490E-1,-1.143769264E0,-2.536391914E-1,9.925428391E0
5.275786640E-1,-1.143769264E0,-2.153540403E-1,9.934999466E0
5.296852780E-1,-1.148554921E0,-2.057827413E-1,9.920642853E0
5.317918930E-1,-1.143769264E0,-1.722832322E-1,9.911071777E0
5.338985070E-1,-1.148554921E0,-1.387837082E-1,9.906285286E0
5.360051740E-1,-1.148554921E0,-1.052841991E-1,9.887143135E0
5.381117890E-1,-1.162911773E0,-7.657032460E-2,9.877572060E0
5.402184030E-1,-1.182054400E0,-3.349951655E-2,9.844072342E0
5.423250180E-1,-1.201196909E0,-4.785645287E-3,9.839286804E0
5.444316320E-1,-1.210768223E0,3.828516230E-2,9.805787086E0
5.465382470E-1,-1.244267821E0,9.571290761E-2,9.791430473E0
5.486449140E-1,-1.258624673E0,1.292124242E-1,9.757930756E0
5.507515280E-1,-1.272981644E0,1.627119333E-1,9.705288887E0
5.528581430E-1,-1.301695466E0,1.866401732E-1,9.671789169E0
5.549647570E-1,-1.335195065E0,1.914258152E-1,9.643074989E0
5.570714240E-1,-1.359123230E0,2.201396823E-1,9.609575272E0
5.591779870E-1,-1.387837172E0,2.536391914E-1,9.566504478E0
5.612846530E-1,-1.392622828E0,2.536391914E-1,9.556933403E0
5.633912680E-1,-1.406979680E0,2.632105052E-1,9.509077072E0
5.654978820E-1,-1.416550994E0,2.823530734E-1,9.504291534E0
5.676044970E-1,-1.416550994E0,2.823530734E-1,9.456435204E0
5.697111640E-1,-1.421336651E0,2.727817893E-1,9.432506561E0
5.718177780E-1,-1.378265858E0,2.584248483E-1,9.379864693E0
5.739243930E-1,-1.373480201E0,2.392822653E-1,9.332008362E0
5.760310070E-1,-1.359123230E0,2.057827413E-1,9.288937569E0
5.781376220E-1,-1.349551916E0,1.818545163E-1,9.231510162E0
5.802442890E-1,-1.335195065E0,1.339980662E-1,9.183652878E0
5.823509030E-1,-1.301695466E0,6.221338734E-2,9.140582085E0
5.844575180E-1,-1.287338614E0,1.914258115E-2,9.092725754E0
5.865641320E-1,-1.282552958E0,-3.828516230E-2,9.073583603E0
5.886707470E-1,-1.277767301E0,-5.742774159E-2,9.078369141E0
5.907773620E-1,-1.253839016E0,-1.196411327E-1,9.068798065E0
5.928840280E-1,-1.234696507E0,-1.483550072E-1,9.087940216E0
5.949906430E-1,-1.239482164E0,-2.009970993E-1,9.159725189E0
5.970972570E-1,-1.244267821E0,-2.297109663E-1,9.207581520E0
5.992038720E-1,-1.205982566E0,-2.727817893E-1,9.260223389E0
6.013104870E-1,-1.225125194E0,-2.919243574E-1,9.312865257E0
6.034171530E-1,-1.215553880E0,-3.254238665E-1,9.403793335E0
6.055237680E-1,-1.210768223E0,-3.876372576E-1,9.470791817E0
6.076303820E-1,-1.205982566E0,-4.163511395E-1,9.566504478E0
6.097369970E-1,-1.215553880E0,-4.402793646E-1,9.657432556E0
6.118436120E-1,-1.186840057E0,-4.737788737E-1,9.729216576E0
6.139502260E-1,-1.191625714E0,-5.072783828E-1,9.815358162E0
6.160568410E-1,-1.182054400E0,-5.312066078E-1,9.911071777E0
6.181635070E-1,-1.167697430E0,-5.790630579E-1,9.987641335E0
6.202701220E-1,-1.162911773E0,-5.982056856E-1,1.007856941E1
6.223767370E-1,-1.158126116E0,-6.508477330E-1,1.018385315E1
6.244834030E-1,-1.153340459E0,-7.034898400E-1,1.028435135E1
6.265899660E-1,-1.143769264E0,-7.417750359E-1,1.035135078E1
6.286966320E-1,-1.138983607E0,-7.992027402E-1,1.042313576E1
6.308032470E-1,-1.134197950E0,-8.566305041E-1,1.050927734E1
6.329098620E-1,-1.119840980E0,-8.757730722E-1,1.060499001E1
6.350164760E-1,-1.110269666E0,-9.140582681E-1,1.065284634E1
6.371230910E-1,-1.105484009E0,-9.475577474E-1,1.068156052E1
6.392297050E-1,-1.081555843E0,-9.714859724E-1,1.071506023E1
6.413363720E-1,-1.071984529E0,-9.667003751E-1,1.075334454E1
6.434429870E-1,-1.067198873E0,-9.906286001E-1,1.075813103E1
6.455496010E-1,-1.062413216E0,-9.858429432E-1,1.076291656E1
6.476562680E-1,-1.048056364E0,-9.810572863E-1,1.077727318E1
6.497628300E-1,-1.048056364E0,-9.762716293E-1,1.078205872E1
6.518694970E-1,-1.019342422E0,-9.619147182E-1,1.076291656E1
6.539761120E-1,-1.019342422E0,-9.044869542E-1,1.072941685E1
6.560827260E-1,-1.009771109E0,-8.805587292E-1,1.070070267E1
6.581893410E-1,-1.000199914E0,-8.327022791E-1,1.066241741E1
6.602959550E-1,-1.004985452E0,-8.087740541E-1,1.061934662E1
6.624026220E-1,-1.004985452E0,-7.704889178E-1,1.056670475E1
6.645092370E-1,-9.954141974E-1,-7.274180651E-1,1.051884842E1
6.666158510E-1,-9.954141974E-1,-6.843472719E-1,1.048534870E1
6.687224660E-1,-1.004985452E0,-6.556333899E-1,1.043749237E1
6.708290800E-1,-1.004985452E0,-5.982056856E-1,1.038963604E1
6.729357470E-1,-9.906286001E-1,-5.312066078E-1,1.034656525E1
6.750423620E-1,-9.954141974E-1,-4.737788737E-1,1.028435135E1
6.771489760E-1,-9.906286001E-1,-3.924229145E-1,1.023170948E1
6.792555910E-1,-9.523434043E-1,-3.158525825E-1,1.018863869E1
6.813622050E-1,-9.427721500E-1,-2.392822653E-1,1.013121128E1
6.834688200E-1,-9.332008362E-1,-1.818545163E-1,1.009771156E1
6.855754870E-1,-9.140582681E-1,-1.004985496E-1,1.004985523E1
6.876821010E-1,-8.949156404E-1,-4.785645381E-2,9.987641335E0
6.897887160E-1,-8.757730722E-1,3.349951655E-2,9.949356079E0
6.918953820E-1,-8.518448472E-1,7.657032460E-2,9.872786522E0
6.940019450E-1,-8.279166222E-1,1.148554832E-1,9.863214493E0
6.961086120E-1,-8.039883971E-1,1.483550072E-1,9.834501266E0
6.982152260E-1,-7.848458290E-1,1.674975902E-1,9.791430473E0
7.003218410E-1,-7.848458290E-1,1.962114573E-1,9.762716293E0
7.024284550E-1,-7.704889178E-1,1.962114573E-1,9.724431038E0
7.045350700E-1,-7.513462901E-1,2.153540403E-1,9.690931320E0
7.066416840E-1,-7.322037220E-1,2.153540403E-1,9.667003632E0
